frame_idx,t_ns
0,51466900
1,84225900
2,132196700
3,164228800
4,196345200
5,227811100
6,260519400
7,291844000
8,324207300
9,356262300
10,387432800
11,421955200
12,451841100
13,483766400
14,531684900
15,564256800
16,595853700
17,627670800
18,661862800
19,692322600
20,724353100
21,755838500
22,793184500
23,820164600
24,857001700
25,883621200
26,932487600
27,963721600
28,995513600
29,1027573100
30,1060058100
31,1092222800
32,1123830800
33,1155920800
34,1188435600
35,1219747500
36,1251786800
37,1283783000
38,1331642700
39,1366080900
40,1396277100
41,1430961800
42,1459793700
43,1491917100
44,1523886300
45,1556106800
46,1588281300
47,1620362700
48,1652466500
49,1683324200
50,1732386600
51,1764710900
52,1796746400
53,1827937800
54,1861675200
55,1891731000
56,1927493000
57,1956004300
58,1987977700
59,2020306800
60,2053374600
61,2084175900
62,2131473900
63,2165804000
64,2195781700
65,2232790400
66,2259756900
67,2291768600
68,2323775800
69,2356369300
70,2388161700
71,2420303300
72,2451964200
73,2484418600
74,2532049300
75,2563494400
76,2596310200
77,2628506500
78,2660006700
79,2691531700
80,2723924400
81,2756522500
82,2788247600
83,2820472700
84,2852014200
85,2884330000
86,2934170200
87,2963394800
88,2995913700
89,3027866300
90,3061649700
91,3092268900
92,3123906300
93,3155898600
94,3188326000
95,3219737600
96,3252426200
97,3284020000
98,3331873400
99,3363747400
100,3395875300
101,3435074000
102,3459536300
103,3494484100
104,3524198200
105,3561756100
106,3588279900
107,3620242400
108,3651977200
109,3684227800
110,3732831900
111,3763315100
112,3796640400
113,3827668800
114,3860278400
115,3892307200
116,3924441900
117,3955713200
118,3990603400
119,4019891900
120,4054033300
121,4084740400
122,4118960800
123,4163912000
124,4195860500
125,4229393700
126,4259654200
127,4292242400
128,4323968700
129,4357404900
130,4388097300
131,4420343600
132,4452249500
133,4488433100
134,4516093000
135,4564611400
136,4595551800
137,4627546500
138,4659667100
139,4692488200
140,4723691100
141,4756069200
142,4787865400
143,4820016800
144,4856984300
145,4884431100
146,4916391300
147,4963668900
148,5001931300
149,5027551200
150,5059500000
151,5091954200
152,5124371100
153,5155880600
154,5188136200
155,5220196100
156,5251714800
157,5283936700
158,5316504900
159,5367310700
160,5396348400
161,5428346500
162,5459773500
163,5492777400
164,5524785800
165,5556176600
166,5587931400
167,5620277800
168,5652043200
169,5685281800
170,5716481500
171,5764216500
172,5800401200
173,5828683400
174,5861678200
175,5891921900
176,5923930600
177,5956223000
178,5991531700
179,6019967800
180,6056738300
181,6083916000
182,6117747300
183,6167231100
184,6197045000
185,6229270900
186,6260278500
187,6305130400
188,6323699900
189,6358826600
190,6388261300
191,6424244600
192,6452282800
193,6484001800
194,6516032300
195,6564070100
196,6595759600
197,6628297500
198,6660367600
199,6691887000
200,6724242300
201,6756684500
202,6788669700
203,6820737900
204,6852724200
205,6884153900
206,6915818900
207,6964086000
208,6995942100
209,7028372500
210,7059716100
211,7091881900
212,7129888900
213,7156240900
214,7188018800
215,7220072300
216,7252227300
217,7284009500
218,7316111000
219,7364897600
220,7396645400
221,7430511600
222,7461086500
223,7492256900
224,7523693800
225,7556584300
226,7587902300
227,7624811300
228,7652252200
229,7690258300
230,7716092000
231,7763894800
232,7796303400
233,7828681500
234,7861406200
235,7892210800
236,7926422300
237,7955811000
238,7989297900
239,8020139600
240,8055095500
241,8084170700
242,8118181000
243,8164641300
244,8196483800
245,8231234600
246,8260860900
247,8292444300
248,8324418500
249,8355772000
250,8388295800
251,8421434700
252,8452238900
253,8486608700
254,8516083400
255,8565507000
256,8596470300
257,8628289300
258,8660774600
259,8692758100
260,8725750500
261,8756603700
262,8788226100
263,8820232500
264,8852502900
265,8883958800
266,8917536100
267,8948298900
268,8996427000
269,9028038200
270,9063794100
271,9091811400
272,9129101100
273,9156546000
274,9188325300
275,9220017100
276,9252182900
277,9285541200
278,9316277100
279,9348273100
280,9395994100
281,9430748300
282,9459918200
283,9493771100
284,9523996200
285,9556998300
286,9588504400
287,9622678200
288,9652282900
289,9683584900
290,9715997900
291,9748726000
292,9800281800
293,9828510000
294,9860225600
295,9892259100
296,9924497100
297,9956429400
298,9991958700
299,10020129800
300,10053159100
301,10084393200
302,10119299300
303,10148134000
304,10195560100
305,10227978600
306,10260511100
307,10292803700
308,10324729200
309,10356700400
310,10388363400
311,10420039500
312,10452452700
313,10490648200
314,10515911000
315,10548433500
316,10596138300
317,10628148900
318,10660649900
319,10691893600
320,10723797500
321,10756485500
322,10790816400
323,10820576600
324,10854042300
325,10884688700
326,10916650900
327,10948255600
328,10997925700
329,11028495500
330,11060324300
331,11091768100
332,11124418100
333,11155974200
334,11188814600
335,11220578600
336,11251647000
337,11284454100
338,11316147200
339,11349183300
340,11395975500
341,11429055500
342,11460076100
343,11495501200
344,11524357500
345,11556889600
346,11587967700
347,11624193200
348,11652238400
349,11685395800
350,11716822200
351,11749217400
352,11801728900
353,11828038900
354,11861586700
355,11892867700
356,11923852200
357,11956487700
358,11994325000
359,12020767200
360,12058589300
361,12084074200
362,12116606300
363,12148065100
364,12196297400
365,12230981800
366,12260265000
367,12296655800
368,12324191300
369,12359303100
370,12388325000
371,12421166700
372,12452351500
373,12485126800
374,12516585400
375,12548372100
376,12596010700
377,12627745800
378,12660122100
379,12691843400
380,12724208500
381,12756350200
382,12788556700
383,12820512800
384,12851907700
385,12884562100
386,12917381400
387,12947953100
388,12998431900
389,13028535900
390,13061511900
391,13092040600
392,13124425500
393,13156833800
394,13188978000
395,13220284400
396,13252957700
397,13284274000
398,13316803800
399,13348271900
400,13396018900
401,13429835000
402,13460275800
403,13492845000
404,13524258100
405,13556912700
406,13588043400
407,13625558500
408,13652388000
409,13684386800
410,13716681900
411,13747874100
412,13780323100
413,13827769500
414,13862665400
415,13892188400
416,13933648600
417,13956807000
418,13994365600
419,14019880200
420,14054552200
421,14085011400
422,14119856500
423,14148672700
424,14185097400
425,14232914600
426,14260180900
427,14296091400
428,14324420000
429,14358612700
430,14388424400
431,14428286500
432,14452837700
433,14484602400
434,14516344100
435,14548720000
436,14580531600
437,14628052600
438,14660640900
439,14692150100
440,14725789500
441,14756430900
442,14788533300
443,14820138700
444,14852769700
445,14884132000
446,14917803800
447,14948701100
448,14982219400
449,15028049900
450,15061189200
451,15092186600
452,15127709400
453,15156561900
454,15189120800
455,15220417300
456,15252026700
457,15284231200
458,15316726500
459,15348236900
460,15380249200
461,15433332500
462,15459972500
463,15492970200
464,15524305000
465,15563843000
466,15588243100
467,15620736900
468,15652497700
469,15684536700
470,15716166500
471,15748845300
472,15780906700
473,15827789700
474,15865124000
475,15893134800
476,15925826300
477,15956320500
478,15994199000
479,16020552400
480,16056006900
481,16084391500
482,16119567400
483,16148477800
484,16180606100
485,16229657800
486,16259937600
487,16292724600
488,16324316500
489,16356249400
490,16388275000
491,16421518600
492,16452313000
493,16485162600
494,16516730200
495,16558713300
496,16580745400
497,16628794500
498,16660817000
499,16692256000
500,16724266900
501,16755830600
502,16788335000
503,16819876100
504,16852338400
505,16884349100
506,16926532700
507,16948044500
508,16987531400
509,17028158500
510,17060173400
511,17091849100
512,17123997100
513,17156189600
514,17188502800
515,17220806600
516,17251805300
517,17284088600
518,17316235100
519,17349152700
520,17381068400
521,17434026100
522,17460132700
523,17492761500
524,17524439600
525,17557320800
526,17588659100
527,17620416900
528,17652062100
529,17689638400
530,17716225700
531,17748241700
532,17780542400
533,17828308500
534,17860590000
535,17892265800
536,17924448500
537,17956611700
538,17991084400
539,18020067300
540,18058804500
541,18084123000
542,18118736200
543,18148426100
544,18184905100
545,18228916800
546,18260608200
547,18298372800
548,18324326100
549,18361106400
550,18388114900
551,18420374500
552,18452498100
553,18486606000
554,18516533600
555,18549450000
556,18580640200
557,18628524600
558,18660280100
559,18692743800
560,18724389500
561,18756526100
562,18788375900
563,18820618800
564,18852346900
565,18884294000
566,18916303300
567,18948037900
568,18980145900
569,19028552800
570,19060522700
571,19092910200
572,19129807800
573,19156990400
574,19188185100
575,19220190400
576,19252435800
577,19284444800
578,19316507600
579,19348459600
580,19379879900
581,19431503400
582,19460610300
583,19493077000
584,19524447500
585,19557166500
586,19588065300
587,19621365800
588,19652708700
589,19689552100
590,19716619900
591,19748796000
592,19780361000
593,19828441700
594,19862845800
595,19893218000
596,19924513800
597,19956355800
598,19992818600
599,20020928800
600,20052135200
601,20084303500
602,20116750800
603,20148033900
604,20184920200
605,20240080900
606,20260249500
607,20298011200
608,20325149700
609,20361319600
610,20388353600
611,20424420800
612,20452931000
613,20488321100
614,20516268900
615,20549516500
616,20580468400
617,20615852000
618,20660433500
619,20692472400
620,20726292300
621,20756508400
622,20788740300
623,20820766900
624,20853965400
625,20884577500
626,20917246400
627,20948506200
628,20985239900
629,21012884400
630,21066364400
631,21092737600
632,21130480100
633,21155894200
634,21188461700
635,21220283500
636,21252747600
637,21284013900
638,21316436800
639,21348909700
640,21380857100
641,21412692900
642,21460711200
643,21495860000
644,21524364800
645,21557098300
646,21588772900
647,21621843000
648,21652668000
649,21686143700
650,21716067300
651,21750602500
652,21780342200
653,21812990200
654,21865479900
655,21892161700
656,21926193500
657,21956707900
658,21995491800
659,22020594600
660,22056326900
661,22084547600
662,22118389200
663,22148276600
664,22184591700
665,22212642100
666,22261078000
667,22292855000
668,22324731000
669,22356827600
670,22388732800
671,22426391000
672,22452530500
673,22489255200
674,22516130800
675,22549524600
676,22580104600
677,22614389200
678,22660382300
679,22692837400
680,22724467900
681,22756316100
682,22790538200
683,22821358600
684,22852622900
685,22885159200
686,22918303200
687,22948546800
688,22983434700
689,23012579400
690,23060640400
691,23092535900
692,23124593300
693,23156258700
694,23188262700
695,23220319400
696,23252654500
697,23285103200
698,23319282000
699,23349948800
700,23380788700
701,23412865900
702,23460325200
703,23492609600
704,23524685100
705,23557843900
706,23588855500
707,23621897500
708,23652627800
709,23687535700
710,23717480500
711,23749612500
712,23780518700
713,23816004200
714,23866089600
715,23892661400
716,23925171000
717,23956478500
718,23994870500
719,24021370300
720,24053795700
721,24084918600
722,24121188600
723,24148165000
724,24184716000
725,24212894800
726,24262854900
727,24297206200
728,24324264600
729,24356470300
730,24388355500
731,24420901800
732,24452882500
733,24484521600
734,24517347600
735,24550489000
736,24580922100
737,24613444900
738,24661314900
739,24692701400
740,24727952100
741,24757486500
742,24789781600
743,24820770300
744,24856103400
745,24884943200
746,24917102000
747,24948491900
748,24987806000
749,25012999300
750,25061017300
751,25092058600
752,25124442800
753,25156631500
754,25189183000
755,25220530700
756,25252562400
757,25284615600
758,25316913900
759,25348736900
760,25380731500
761,25413000300
762,25460468700
763,25493628700
764,25525286100
765,25557967900
766,25588370100
767,25624451000
768,25652540000
769,25686807800
770,25716876500
771,25748883400
772,25780924000
773,25813396200
774,25844577500
775,25892453600
776,25925101100
777,25956025500
778,25989852000
779,26020497800
780,26057049000
781,26084533000
782,26117835500
783,26149152400
784,26180820800
785,26212915900
786,26244489800
787,26296044300
788,26324217300
789,26360249800
790,26388657600
791,26423945100
792,26452581100
793,26485337600
794,26516725200
795,26554808800
796,26580904600
797,26616344400
798,26644960400
799,26692818000
800,26725118800
801,26756408500
802,26788524200
803,26820960200
804,26855486800
805,26884429300
806,26917171400
807,26948641600
808,26982958100
809,27012328900
810,27044454100
811,27092167000
812,27124411700
813,27156311500
814,27188294600
815,27220338600
816,27252203600
817,27284673600
818,27316335000
819,27349198800
820,27380875100
821,27414369400
822,27444680800
823,27494369400
824,27524465400
825,27560869200
826,27588745400
827,27622023800
828,27652789400
829,27685079700
830,27716749900
831,27749080400
832,27781234700
833,27817302200
834,27845217500
835,27892431400
836,27925522200
837,27956507200
838,27991611300
839,28020558400
840,28054623100
841,28084784500
842,28120435600
843,28148862600
844,28181967200
845,28213027500
846,28246578900
847,28292569700
848,28325070600
849,28357366200
850,28389015600
851,28421514100
852,28452885500
853,28484856400
854,28516218600
855,28550483400
856,28580813100
857,28616208000
858,28645382600
859,28692391400
860,28724661000
861,28756870700
862,28789052100
863,28820778400
864,28852914500
865,28884665500
866,28925231600
867,28948579100
868,28981262100
869,29012924500
870,29045969600
871,29092583700
872,29125266000
873,29156622500
874,29188848600
875,29220607000
876,29252661200
877,29284985600
878,29316474600
879,29348631200
880,29381283200
881,29413350900
882,29445665600
883,29492669600
884,29524145100
885,29556764700
886,29588572800
887,29620806800
888,29652787900
889,29686009100
890,29716772800
891,29749370100
892,29780815800
893,29817330800
894,29844530200
895,29892459600
896,29926874000
897,29956300200
898,29993950000
899,30020847700
900,30053250700
901,30085247300
902,30122649900
903,30148479100
904,30181429000
905,30212913400
906,30245482000
907,30298003500
908,30324578200
909,30357669800
910,30388237000
911,30422222100
912,30452809000
913,30486301600
914,30516722700
915,30552309500
916,30580512900
917,30621044700
918,30644276200
919,30679549400
920,30727379600
921,30757087600
922,30788616700
923,30821311400
924,30855928100
925,30884968100
926,30917813800
927,30948709200
928,30984009600
929,31012939000
930,31051111000
931,31076979000
932,31125373300
933,31156488300
934,31190097200
935,31220769700
936,31252373400
937,31284670000
938,31316564500
939,31348857800
940,31380640200
941,31413160100
942,31445456600
943,31476705700
944,31524836500
945,31559502500
946,31588672000
947,31626053500
948,31652790800
949,31685087500
950,31716258100
951,31749943000
952,31780607800
953,31812658900
954,31844467200
955,31880811600
956,31927111500
957,31956648700
958,31989811100
959,32020636600
960,32052373300
961,32084672400
962,32120525900
963,32148291700
964,32181366500
965,32212774300
966,32246322100
967,32276841500
968,32324453000
969,32356709600
970,32389190600
971,32420841000
972,32452891700
973,32486866100
974,32516712300
975,32551323400
976,32580690400
977,32615859000
978,32644750500
979,32682518500
980,32725796300
981,32756852600
982,32794195300
983,32820407700
984,32857890100
985,32885490000
986,32923336600
987,32948504700
988,32983874700
989,33012817800
990,33050933200
991,33076587900
992,33128948600
993,33156535900
994,33188925700
995,33220673900
996,33252380100
997,33284719300
998,33317080100
999,33348730700
1000,33380617800
1001,33413624400
1002,33449162600
1003,33480133100
1004,33525318900
1005,33564841100
1006,33588818500
1007,33623337000
1008,33652598000
1009,33688093400
1010,33716535900
1011,33749289300
1012,33780595500
1013,33816555600
1014,33844790300
1015,33878686200
1016,33928251600
1017,33956538700
1018,33993141800
1019,34021234800
1020,34060321900
1021,34084995200
1022,34117900500
1023,34148479700
1024,34185946400
1025,34212341000
1026,34244837400
1027,34276856000
1028,34324630000
1029,34360111000
1030,34389021300
1031,34423568800
1032,34452850200
1033,34487040100
1034,34517088500
1035,34549439700
1036,34580867600
1037,34617591800
1038,34644581100
1039,34683009100
1040,34725363800
1041,34757106300
1042,34788584100
1043,34821097000
1044,34852947000
1045,34885276200
1046,34916910100
1047,34948476200
1048,34980489900
1049,35012458800
1050,35044806500
1051,35076662700
1052,35125666500
1053,35156656700
1054,35188703600
1055,35220916100
1056,35252900000
1057,35284801700
1058,35317088100
1059,35348959800
1060,35380604100
1061,35413035400
1062,35444983000
1063,35480015400
1064,35509272800
1065,35561314200
1066,35588713200
1067,35623465300
1068,35652722100
1069,35685223400
1070,35716655600
1071,35749139800
1072,35781290500
1073,35813147600
1074,35844484000
1075,35877151200
1076,35908799500
1077,35956708100
1078,35996001800
1079,36020770300
1080,36057748300
1081,36084910700
1082,36122119800
1083,36149089900
1084,36187182500
1085,36212959000
1086,36247600600
1087,36277340300
1088,36310761600
1089,36358553500
1090,36389056400
1091,36428872700
1092,36453009100
1093,36485671000
1094,36517032100
1095,36554394900
1096,36581044400
1097,36612985100
1098,36644703400
1099,36678856400
1100,36708857500
1101,36756629700
1102,36790199700
1103,36821081700
1104,36859076300
1105,36885041700
1106,36916587900
1107,36948979300
1108,36982742200
1109,37013323200
1110,37046829300
1111,37077244500
1112,37111222000
1113,37157079400
1114,37193344500
1115,37220603000
1116,37254005900
1117,37286956300
1118,37317150600
1119,37349144400
1120,37381968600
1121,37412974000
1122,37445331000
1123,37477338900
1124,37509530400
1125,37559756700
1126,37588679700
1127,37620660200
1128,37652785300
1129,37690026200
1130,37716889200
1131,37751763000
1132,37780702100
1133,37813344300
1134,37845515100
1135,37877069500
1136,37909283600
1137,37956677500
1138,37995215700
1139,38021325300
1140,38058239500
1141,38084481500
1142,38117303300
1143,38148654700
1144,38180807900
1145,38212568300
1146,38244689600
1147,38277037800
1148,38312525200
1149,38366966100
1150,38388583900
1151,38424266900
1152,38453149100
1153,38487586800
1154,38516684500
1155,38550229600
1156,38581057000
1157,38616888900
1158,38644979000
1159,38677262200
1160,38709202800
1161,38757097500
1162,38790493700
1163,38821542100
1164,38853777400
1165,38884915100
1166,38917384100
1167,38948506700
1168,38988138100
1169,39013037500
1170,39046631000
1171,39077259300
1172,39112673900
1173,39157097900
1174,39192116100
1175,39220662800
1176,39252536700
1177,39284886400
1178,39317493800
1179,39349118000
1180,39381018100
1181,39413946300
1182,39445730600
1183,39479637700
1184,39509345000
1185,39557677600
1186,39588797000
1187,39621210100
1188,39653617700
1189,39686962300
1190,39717600300
1191,39749649900
1192,39781408100
1193,39813629800
1194,39844661300
1195,39882257400
1196,39909456400
1197,39956729100
1198,39992987400
1199,40020812600
1200,40058731900
1201,40084798000
1202,40118343400
1203,40149145500
1204,40183273900
1205,40212827000
1206,40249519800
1207,40276782100
1208,40315980200
1209,40356857100
1210,40388852700
1211,40425943200
1212,40453084000
1213,40487910600
1214,40516787800
1215,40548957200
1216,40580666100
1217,40614461900
1218,40645393300
1219,40683959100
1220,40709161100
1221,40747823000
1222,40788970800
1223,40821019600
1224,40853495700
1225,40884949700
1226,40917988100
1227,40949654800
1228,40983242000
1229,41012952100
1230,41046738600
1231,41076743600
1232,41108972900
1233,41141240000
1234,41189237000
1235,41220923700
1236,41252456400
1237,41285548100
1238,41317201300
1239,41348988600
1240,41380451500
1241,41413262100
1242,41444995400
1243,41476877900
1244,41508688300
1245,41540603200
1246,41588643500
1247,41628550600
1248,41652481900
1249,41686247700
1250,41716831000
1251,41750291300
1252,41781180800
1253,41813562600
1254,41845278000
1255,41876808100
1256,41909089500
1257,41942058500
1258,41989008200
1259,42020911600
1260,42060404600
1261,42084725300
1262,42120316100
1263,42149180100
1264,42183897100
1265,42212610900
1266,42249008200
1267,42277025300
1268,42315017700
1269,42341163300
1270,42389054100
1271,42421017600
1272,42453134300
1273,42485437500
1274,42517461300
1275,42552601800
1276,42580810800
1277,42620176400
1278,42645001800
1279,42684301200
1280,42709264600
1281,42745550500
1282,42789991700
1283,42821646200
1284,42855744700
1285,42885228400
1286,42916643600
1287,42948664300
1288,42981394500
1289,43012899300
1290,43047932200
1291,43077233500
1292,43110482300
1293,43141078700
1294,43195252200
1295,43220951300
1296,43257332000
1297,43284898200
1298,43317045100
1299,43349174600
1300,43381628800
1301,43413061600
1302,43445385300
1303,43477462300
1304,43508962100
1305,43545489100
1306,43589352500
1307,43624178400
1308,43652483300
1309,43687317600
1310,43717295100
1311,43751297600
1312,43781811700
1313,43813148700
1314,43845108700
1315,43877030800
1316,43909124000
1317,43942068200
1318,43995815300
1319,44021325700
1320,44053080100
1321,44085385200
1322,44123947200
1323,44149013600
1324,44186468900
1325,44212812000
1326,44248774900
1327,44277247500
1328,44308896200
1329,44340755200
1330,44389129300
1331,44420865100
1332,44452830300
1333,44486699500
1334,44517221800
1335,44550335500
1336,44580414200
1337,44622040000
1338,44644970000
1339,44681290400
1340,44709204700
1341,44748835300
1342,44796101900
1343,44821136600
1344,44852945500
1345,44884729200
1346,44916923200
1347,44949132400
1348,44980628100
1349,45013548900
1350,45047419200
1351,45077280900
1352,45112553000
1353,45141443800
1354,45195627800
1355,45220798600
1356,45253376400
1357,45285573000
1358,45316955600
1359,45348977700
1360,45380690000
1361,45413268400
1362,45445328600
1363,45481341600
1364,45509474800
1365,45554166000
1366,45573527400
1367,45625935200
1368,45652897300
1369,45684709600
1370,45717309300
1371,45748767800
1372,45780984200
1373,45816776600
1374,45845010800
1375,45877867300
1376,45909087100
1377,45941204600
1378,45974161100
1379,46020923800
1380,46059495100
1381,46085041800
1382,46119824500
1383,46149298300
1384,46185575100
1385,46212864900
1386,46245247900
1387,46277055500
1388,46311746200
1389,46340826700
1390,46374866000
1391,46424410800
1392,46452895600
1393,46491508900
1394,46517010600
1395,46553260900
1396,46580842500
1397,46614567300
1398,46645028900
1399,46681970500
1400,46709044700
1401,46742403500
1402,46772933800
1403,46821269000
1404,46853466100
1405,46884636700
1406,46918073600
1407,46949173600
1408,46983544300
1409,47012996900
1410,47045230200
1411,47076782700
1412,47111198000
1413,47141460800
1414,47175122200
1415,47221608200
1416,47252552400
1417,47285106600
1418,47317039900
1419,47349127500
1420,47381319600
1421,47415434600
1422,47445720800
1423,47477367600
1424,47508687500
1425,47543885900
1426,47573234400
1427,47621867400
1428,47653191800
1429,47685472800
1430,47716560000
1431,47749133800
1432,47781425500
1433,47814657600
1434,47846284900
1435,47877170000
1436,47909261400
1437,47941051400
1438,47973026000
1439,48020826100
1440,48056253000
1441,48085316300
1442,48117300500
1443,48149302400
1444,48182275600
1445,48213772200
1446,48246584000
1447,48277461000
1448,48311451600
1449,48341626700
1450,48373418300
1451,48426384600
1452,48452847800
1453,48485678200
1454,48516650800
1455,48550570700
1456,48581786000
1457,48619004600
1458,48645373200
1459,48683723400
1460,48708900000
1461,48741078200
1462,48773343500
1463,48820835400
1464,48854741400
1465,48885203600
1466,48927467900
1467,48949575500
1468,48982344300
1469,49013461800
1470,49052082700
1471,49077106400
1472,49110873600
1473,49141456000
1474,49174948700
1475,49221493900
1476,49252809500
1477,49285835700
1478,49317077700
1479,49350705100
1480,49381141400
1481,49412847500
1482,49445335300
1483,49477261200
1484,49509408500
1485,49542830100
1486,49573090200
1487,49620950100
1488,49652969400
1489,49687304400
1490,49716769500
1491,49754537100
1492,49781859400
1493,49813643400
1494,49844854500
1495,49877384000
1496,49909543000
1497,49941413900
1498,49972882700
1499,50021285600
1500,50057635500
1501,50085751500
1502,50119480000
1503,50149113700
1504,50185357000
1505,50212921300
1506,50246976900
1507,50277255000
1508,50309033200
1509,50341340400
1510,50373298600
1511,50405374500
1512,50453283600
1513,50485550300
1514,50518078400
1515,50550303700
1516,50581191800
1517,50618131100
1518,50645443400
1519,50677908900
1520,50709606700
1521,50748381300
1522,50773821100
1523,50809142800
1524,50852988600
1525,50885591400
1526,50918006500
1527,50948759700
1528,50982461100
1529,51013178100
1530,51049856300
1531,51077336600
1532,51110038500
1533,51141303900
1534,51174932400
1535,51205519000
1536,51253418800
1537,51285052300
1538,51317054600
1539,51349312200
1540,51381288100
1541,51413625700
1542,51445228800
1543,51477657600
1544,51509479400
1545,51542812200
1546,51573926600
1547,51605676300
1548,51653013100
1549,51685046600
1550,51717768100
1551,51749555300
1552,51781796000
1553,51813191700
1554,51845431200
1555,51877261200
1556,51909879100
1557,51941962300
1558,51973535500
1559,52005121400
1560,52056969900
1561,52085011800
1562,52120028600
1563,52149237300
1564,52181308500
1565,52213140700
1566,52245636200
1567,52277211700
1568,52309502400
1569,52340997300
1570,52373851800
1571,52404917900
1572,52453084000
1573,52488226200
1574,52517390200
1575,52550476500
1576,52580908400
1577,52616137600
1578,52645278800
1579,52677479800
1580,52710298800
1581,52745441000
1582,52773616800
1583,52805420600
1584,52853677300
1585,52884982700
1586,52918515300
1587,52949009900
1588,52983178100
1589,53013143000
1590,53045737000
1591,53077337400
1592,53111838600
1593,53141754800
1594,53176253700
1595,53205529400
1596,53253450700
1597,53285199600
1598,53317023100
1599,53349176200
1600,53381781200
1601,53414030500
1602,53444719700
1603,53480695300
1604,53510140200
1605,53541228600
1606,53573449600
1607,53605337800
1608,53653586200
1609,53685960200
1610,53717270400
1611,53749547200
1612,53781716900
1613,53813368200
1614,53845626300
1615,53877615700
1616,53910772000
1617,53940861100
1618,53973665200
1619,54005896000
1620,54054152600
1621,54085778700
1622,54118257500
1623,54149527300
1624,54181614100
1625,54213594200
1626,54251230600
1627,54277005400
1628,54310755500
1629,54341576900
1630,54375465100
1631,54405137100
1632,54453388200
1633,54490012000
1634,54517125700
1635,54550566500
1636,54581492200
1637,54616419500
1638,54645591800
1639,54679359800
1640,54709790800
1641,54747545700
1642,54773335200
1643,54805969100
1644,54863907800
1645,54886364500
1646,54917659600
1647,54949034800
1648,54981101400
1649,55012827700
1650,55046908000
1651,55076994600
1652,55109510300
1653,55141697300
1654,55174042500
1655,55205650400
1656,55238757400
1657,55284912900
1658,55317348300
1659,55349851700
1660,55381877700
1661,55415278300
1662,55444837400
1663,55477210700
1664,55509350000
1665,55541633600
1666,55573035100
1667,55608517200
1668,55637765500
1669,55685854000
1670,55717844000
1671,55751288600
1672,55782052500
1673,55813484000
1674,55845294100
1675,55878358500
1676,55909537600
1677,55941451400
1678,55974758800
1679,56005294700
1680,56037423200
1681,56085526000
1682,56120987100
1683,56149013600
1684,56185918800
1685,56213171100
1686,56252216200
1687,56277298400
1688,56309510800
1689,56341662500
1690,56373369700
1691,56405082300
1692,56438521700
1693,56492424500
1694,56517905400
1695,56549280400
1696,56581648800
1697,56618235800
1698,56645485500
1699,56677180500
1700,56709704800
1701,56747718700
1702,56773696100
1703,56807782400
1704,56837145700
1705,56885871600
1706,56918618200
1707,56949884500
1708,56981862800
1709,57013576000
1710,57049342200
1711,57077050500
1712,57112841700
1713,57141744800
1714,57176774300
1715,57205896900
1716,57243025400
1717,57285782700
1718,57318006300
1719,57349623700
1720,57381731100
1721,57414804600
1722,57445690500
1723,57477368000
1724,57509850200
1725,57542090800
1726,57574436900
1727,57606380900
1728,57637687500
1729,57687025700
1730,57717703200
1731,57749295000
1732,57781578900
1733,57813857100
1734,57845030000
1735,57877012500
1736,57909439500
1737,57942058700
1738,57973072700
1739,58005729400
1740,58037411300
1741,58085462100
1742,58117289600
1743,58149517700
1744,58187759200
1745,58213232700
1746,58247418200
1747,58276957800
1748,58309388700
1749,58341337900
1750,58373800200
1751,58405841300
1752,58437928000
